Time (s)  Dry mass     Dry mass      Protein          RNA    Small mol     Expected
              (fg)  fold change  fold change  fold change  fold change  fold change
========  ========  ===========  ===========  ===========  ===========  ===========
    0.00    351.18        1.000        1.000        1.000        1.000        1.000
    2.00    351.15        1.000        1.001        1.001        0.999        1.001
    4.00    351.26        1.000        1.001        1.001        0.999        1.001
    6.00    351.37        1.001        1.002        1.002        0.999        1.002
    8.00    351.50        1.001        1.002        1.002        0.999        1.002
   10.00    351.64        1.001        1.003        1.003        0.999        1.003
   12.00    351.79        1.002        1.003        1.003        0.999        1.003
   14.00    351.94        1.002        1.004        1.004        0.999        1.004
   16.00    352.09        1.003        1.004        1.004        1.000        1.004
   18.00    352.24        1.003        1.005        1.005        1.000        1.005
   20.00    352.39        1.003        1.005        1.005        1.000        1.005
   22.00    352.56        1.004        1.006        1.006        1.001        1.006
   24.00    352.72        1.004        1.006        1.006        1.001        1.006
   26.00    352.89        1.005        1.007        1.007        1.001        1.007
   28.00    353.06        1.005        1.007        1.007        1.002        1.007
   30.00    353.23        1.006        1.008        1.008        1.002        1.008
   32.00    353.39        1.006        1.008        1.008        1.003        1.008
   34.00    353.56        1.007        1.009        1.009        1.003        1.009
   36.00    353.74        1.007        1.009        1.009        1.004        1.009
   38.00    353.92        1.008        1.010        1.010        1.004        1.010
   40.00    354.10        1.008        1.010        1.011        1.004        1.011
   42.00    354.27        1.009        1.011        1.011        1.005        1.011
   44.00    354.45        1.009        1.012        1.012        1.005        1.012
   46.00    354.63        1.010        1.012        1.012        1.006        1.012
   48.00    354.81        1.010        1.013        1.013        1.006        1.013
   50.00    354.99        1.011        1.013        1.014        1.007        1.013
   52.00    355.17        1.011        1.014        1.014        1.007        1.014
   54.00    355.35        1.012        1.014        1.015        1.008        1.014
   56.00    355.53        1.012        1.015        1.015        1.008        1.015
   58.00    355.71        1.013        1.015        1.016        1.009        1.015
   60.00    355.88        1.013        1.016        1.016        1.009        1.016
   62.00    356.06        1.014        1.016        1.017        1.010        1.016
   64.00    356.24        1.014        1.017        1.018        1.010        1.017
   66.00    356.42        1.015        1.017        1.018        1.011        1.017
   68.00    356.60        1.015        1.018        1.019        1.011        1.018
   70.00    356.78        1.016        1.018        1.019        1.012        1.019
   72.00    356.96        1.016        1.019        1.020        1.012        1.019
   74.00    357.14        1.017        1.019        1.021        1.013        1.020
   76.00    357.32        1.017        1.020        1.021        1.013        1.020
   78.00    357.50        1.018        1.020        1.022        1.014        1.021
   80.00    357.68        1.018        1.021        1.022        1.014        1.021
   82.00    357.86        1.019        1.021        1.023        1.015        1.022
   84.00    358.03        1.020        1.022        1.023        1.015        1.022
   86.00    358.21        1.020        1.022        1.024        1.016        1.023
   88.00    358.39        1.021        1.023        1.024        1.016        1.023
   90.00    358.57        1.021        1.023        1.025        1.017        1.024
   92.00    358.75        1.022        1.024        1.026        1.017        1.024
   94.00    358.93        1.022        1.024        1.026        1.018        1.025
   96.00    359.11        1.023        1.025        1.027        1.018        1.026
   98.00    359.29        1.023        1.025        1.027        1.019        1.026
========  ========  ===========  ===========  ===========  ===========  ===========
Time (s)  Dry mass     Dry mass      Protein          RNA    Small mol     Expected
              (fg)  fold change  fold change  fold change  fold change  fold change
========  ========  ===========  ===========  ===========  ===========  ===========
  100.00    359.48        1.024        1.026        1.028        1.019        1.027
  102.00    359.66        1.024        1.026        1.029        1.020        1.027
  104.00    359.84        1.025        1.027        1.029        1.020        1.028
  106.00    360.02        1.025        1.027        1.030        1.021        1.028
  108.00    360.20        1.026        1.028        1.030        1.021        1.029
  110.00    360.39        1.026        1.028        1.031        1.022        1.029
  112.00    360.57        1.027        1.029        1.031        1.022        1.030
  114.00    360.75        1.027        1.029        1.032        1.023        1.030
  116.00    360.93        1.028        1.030        1.032        1.023        1.031
  118.00    361.11        1.028        1.030        1.033        1.024        1.031
  120.00    361.29        1.029        1.031        1.034        1.024        1.032
  122.00    361.47        1.029        1.031        1.034        1.025        1.033
  124.00    361.65        1.030        1.032        1.035        1.025        1.033
  126.00    361.84        1.030        1.032        1.035        1.026        1.034
  128.00    362.03        1.031        1.033        1.036        1.026        1.034
  130.00    362.21        1.031        1.033        1.037        1.027        1.035
  132.00    362.39        1.032        1.034        1.037        1.027        1.035
  134.00    362.57        1.032        1.034        1.038        1.028        1.036
  136.00    362.76        1.033        1.035        1.038        1.028        1.036
  138.00    362.95        1.034        1.035        1.039        1.029        1.037
  140.00    363.14        1.034        1.036        1.040        1.029        1.037
  142.00    363.32        1.035        1.036        1.040        1.030        1.038
  144.00    363.51        1.035        1.037        1.041        1.031        1.039
  146.00    363.70        1.036        1.037        1.042        1.031        1.039
  148.00    363.88        1.036        1.038        1.042        1.032        1.040
  150.00    364.07        1.037        1.038        1.043        1.032        1.040
  152.00    364.25        1.037        1.039        1.043        1.033        1.041
  154.00    364.43        1.038        1.039        1.044        1.033        1.041
  156.00    364.62        1.038        1.040        1.044        1.034        1.042
  158.00    364.81        1.039        1.040        1.045        1.034        1.042
  160.00    365.00        1.039        1.041        1.046        1.035        1.043
  162.00    365.19        1.040        1.041        1.046        1.035        1.043
  164.00    365.37        1.040        1.042        1.047        1.036        1.044
  166.00    365.55        1.041        1.042        1.048        1.036        1.045
  168.00    365.73        1.041        1.043        1.048        1.037        1.045
  170.00    365.91        1.042        1.043        1.049        1.037        1.046
  172.00    366.09        1.042        1.044        1.049        1.038        1.046
  174.00    366.27        1.043        1.044        1.050        1.038        1.047
  176.00    366.46        1.044        1.045        1.050        1.039        1.047
  178.00    366.64        1.044        1.045        1.051        1.039        1.048
  180.00    366.83        1.045        1.046        1.052        1.040        1.048
  182.00    367.01        1.045        1.046        1.052        1.041        1.049
  184.00    367.19        1.046        1.047        1.053        1.041        1.049
  186.00    367.37        1.046        1.047        1.053        1.042        1.050
  188.00    367.56        1.047        1.048        1.054        1.042        1.051
  190.00    367.74        1.047        1.048        1.054        1.043        1.051
  192.00    367.93        1.048        1.049        1.055        1.043        1.052
  194.00    368.11        1.048        1.049        1.056        1.044        1.052
  196.00    368.30        1.049        1.050        1.056        1.044        1.053
  198.00    368.48        1.049        1.050        1.057        1.045        1.053
========  ========  ===========  ===========  ===========  ===========  ===========
Time (s)  Dry mass     Dry mass      Protein          RNA    Small mol     Expected
              (fg)  fold change  fold change  fold change  fold change  fold change
========  ========  ===========  ===========  ===========  ===========  ===========
  200.00    368.67        1.050        1.051        1.057        1.045        1.054
  202.00    368.85        1.050        1.051        1.058        1.046        1.054
  204.00    369.03        1.051        1.052        1.059        1.046        1.055
  206.00    369.22        1.051        1.052        1.059        1.047        1.056
  208.00    369.41        1.052        1.053        1.060        1.047        1.056
  210.00    369.60        1.052        1.053        1.060        1.048        1.057
  212.00    369.79        1.053        1.054        1.061        1.048        1.057
  214.00    369.97        1.054        1.054        1.062        1.049        1.058
  216.00    370.17        1.054        1.055        1.062        1.050        1.058
  218.00    370.35        1.055        1.055        1.063        1.050        1.059
  220.00    370.54        1.055        1.056        1.063        1.051        1.059
  222.00    370.72        1.056        1.056        1.064        1.051        1.060
  224.00    370.91        1.056        1.057        1.065        1.052        1.061
  226.00    371.10        1.057        1.057        1.065        1.052        1.061
  228.00    371.28        1.057        1.058        1.066        1.053        1.062
  230.00    371.47        1.058        1.058        1.066        1.053        1.062
  232.00    371.66        1.058        1.059        1.067        1.054        1.063
  234.00    371.85        1.059        1.059        1.068        1.054        1.063
  236.00    372.04        1.059        1.060        1.068        1.055        1.064
  238.00    372.23        1.060        1.060        1.069        1.056        1.064
  240.00    372.41        1.060        1.061        1.069        1.056        1.065
  242.00    372.60        1.061        1.061        1.070        1.057        1.066
  244.00    372.78        1.061        1.062        1.070        1.057        1.066
  246.00    372.97        1.062        1.062        1.071        1.058        1.067
  248.00    373.15        1.063        1.063        1.072        1.058        1.067
  250.00    373.33        1.063        1.063        1.072        1.059        1.068
  252.00    373.52        1.064        1.064        1.073        1.059        1.068
  254.00    373.70        1.064        1.064        1.073        1.060        1.069
  256.00    373.89        1.065        1.065        1.074        1.061        1.070
  258.00    374.08        1.065        1.065        1.074        1.061        1.070
  260.00    374.26        1.066        1.066        1.075        1.062        1.071
  262.00    374.45        1.066        1.066        1.076        1.062        1.071
  264.00    374.64        1.067        1.067        1.076        1.063        1.072
  266.00    374.82        1.067        1.067        1.077        1.063        1.072
  268.00    375.00        1.068        1.068        1.077        1.064        1.073
  270.00    375.19        1.068        1.068        1.078        1.065        1.073
  272.00    375.37        1.069        1.069        1.078        1.065        1.074
  274.00    375.56        1.069        1.069        1.079        1.066        1.075
  276.00    375.74        1.070        1.069        1.079        1.066        1.075
  278.00    375.93        1.070        1.070        1.080        1.067        1.076
  280.00    376.11        1.071        1.070        1.080        1.067        1.076
  282.00    376.28        1.071        1.071        1.081        1.068        1.077
  284.00    376.46        1.072        1.071        1.081        1.068        1.077
  286.00    376.65        1.073        1.072        1.082        1.069        1.078
  288.00    376.83        1.073        1.072        1.082        1.070        1.079
  290.00    377.02        1.074        1.073        1.083        1.070        1.079
  292.00    377.21        1.074        1.073        1.084        1.071        1.080
  294.00    377.39        1.075        1.074        1.084        1.071        1.080
  296.00    377.59        1.075        1.074        1.085        1.072        1.081
  298.00    377.77        1.076        1.075        1.085        1.072        1.081
========  ========  ===========  ===========  ===========  ===========  ===========
Time (s)  Dry mass     Dry mass      Protein          RNA    Small mol     Expected
              (fg)  fold change  fold change  fold change  fold change  fold change
========  ========  ===========  ===========  ===========  ===========  ===========
  300.00    377.96        1.076        1.075        1.086        1.073        1.082
  302.00    378.15        1.077        1.076        1.087        1.074        1.083
  304.00    378.34        1.077        1.076        1.087        1.074        1.083
  306.00    378.53        1.078        1.077        1.088        1.075        1.084
  308.00    378.72        1.078        1.077        1.088        1.075        1.084
  310.00    378.90        1.079        1.078        1.089        1.076        1.085
  312.00    379.09        1.079        1.078        1.090        1.076        1.085
  314.00    379.28        1.080        1.079        1.090        1.077        1.086
  316.00    379.47        1.081        1.079        1.091        1.078        1.087
  318.00    379.66        1.081        1.080        1.091        1.078        1.087
  320.00    379.85        1.082        1.080        1.092        1.079        1.088
  322.00    380.05        1.082        1.081        1.093        1.079        1.088
  324.00    380.24        1.083        1.081        1.093        1.080        1.089
  326.00    380.43        1.083        1.082        1.094        1.080        1.089
  328.00    380.61        1.084        1.082        1.094        1.081        1.090
  330.00    380.80        1.084        1.083        1.095        1.082        1.091
  332.00    380.99        1.085        1.083        1.096        1.082        1.091
  334.00    381.18        1.085        1.084        1.096        1.083        1.092
  336.00    381.37        1.086        1.084        1.097        1.083        1.092
  338.00    381.56        1.086        1.085        1.097        1.084        1.093
  340.00    381.74        1.087        1.085        1.098        1.084        1.093
  342.00    381.93        1.088        1.086        1.099        1.085        1.094
  344.00    382.12        1.088        1.086        1.099        1.086        1.095
  346.00    382.31        1.089        1.087        1.100        1.086        1.095
  348.00    382.50        1.089        1.087        1.100        1.087        1.096
  350.00    382.70        1.090        1.088        1.101        1.087        1.096
  352.00    382.89        1.090        1.088        1.102        1.088        1.097
  354.00    383.08        1.091        1.089        1.102        1.088        1.097
  356.00    383.27        1.091        1.089        1.103        1.089        1.098
  358.00    383.46        1.092        1.090        1.103        1.090        1.099
  360.00    383.65        1.092        1.090        1.104        1.090        1.099
  362.00    383.84        1.093        1.091        1.105        1.091        1.100
  364.00    384.03        1.094        1.091        1.105        1.091        1.100
  366.00    384.23        1.094        1.092        1.106        1.092        1.101
  368.00    384.41        1.095        1.092        1.106        1.092        1.101
  370.00    384.60        1.095        1.093        1.107        1.093        1.102
  372.00    384.79        1.096        1.093        1.108        1.093        1.103
  374.00    384.97        1.096        1.094        1.108        1.094        1.103
  376.00    385.17        1.097        1.094        1.109        1.095        1.104
  378.00    385.35        1.097        1.095        1.109        1.095        1.104
  380.00    385.54        1.098        1.095        1.110        1.096        1.105
  382.00    385.74        1.098        1.096        1.111        1.096        1.105
  384.00    385.93        1.099        1.096        1.111        1.097        1.106
  386.00    386.12        1.099        1.097        1.112        1.097        1.107
  388.00    386.32        1.100        1.097        1.113        1.098        1.107
  390.00    386.51        1.101        1.098        1.113        1.099        1.108
  392.00    386.70        1.101        1.098        1.114        1.099        1.108
  394.00    386.89        1.102        1.099        1.115        1.100        1.109
  396.00    387.08        1.102        1.099        1.115        1.100        1.110
  398.00    387.28        1.103        1.100        1.116        1.101        1.110
========  ========  ===========  ===========  ===========  ===========  ===========
Time (s)  Dry mass     Dry mass      Protein          RNA    Small mol     Expected
              (fg)  fold change  fold change  fold change  fold change  fold change
========  ========  ===========  ===========  ===========  ===========  ===========
  400.00    387.47        1.103        1.100        1.116        1.101        1.111
  402.00    387.66        1.104        1.101        1.117        1.102        1.111
  404.00    387.85        1.104        1.101        1.118        1.102        1.112
  406.00    388.04        1.105        1.102        1.118        1.103        1.112
  408.00    388.24        1.106        1.102        1.119        1.104        1.113
  410.00    388.43        1.106        1.103        1.119        1.104        1.114
  412.00    388.62        1.107        1.103        1.120        1.105        1.114
  414.00    388.82        1.107        1.104        1.121        1.105        1.115
  416.00    389.00        1.108        1.104        1.121        1.106        1.115
  418.00    389.20        1.108        1.105        1.122        1.106        1.116
  420.00    389.39        1.109        1.105        1.123        1.107        1.117
  422.00    389.58        1.109        1.106        1.123        1.107        1.117
  424.00    389.77        1.110        1.106        1.124        1.108        1.118
  426.00    389.96        1.110        1.107        1.124        1.109        1.118
  428.00    390.16        1.111        1.107        1.125        1.109        1.119
  430.00    390.35        1.112        1.108        1.126        1.110        1.120
  432.00    390.55        1.112        1.108        1.126        1.110        1.120
  434.00    390.75        1.113        1.109        1.127        1.111        1.121
  436.00    390.94        1.113        1.110        1.128        1.111        1.121
